id,alpha,theta,alpha_dot,theta_dot,time
0,3.1047771146805374,-0.006135923151542565,-30.88213095444869,7.367306906098248,0.0003364086151123047
1,3.1017091531047667,-0.009203884727313847,-24.859102842347514,5.740447446090034,0.0016036033630371094
2,3.0955732299532235,-0.009203884727313847,-20.19407843145514,4.592357956872027,0.0056133270263671875
3,3.0925052683774528,-0.01227184630308513,-16.308660823952675,3.5204882867090572,0.009595394134521484
4,3.089437306801681,-0.01227184630308513,-13.200326737950704,2.8163906293672456,0.013570547103881836
5,3.083301383650139,-0.015339807878856412,-10.86705754793769,2.099714424705233,0.017575502395629883
6,3.0771654604985965,-0.015339807878856412,-9.000442195927281,1.6797715397641864,0.02157115936279297
7,3.074097498922825,-0.018407769454627694,-7.353751835530387,1.190419153022785,0.025575637817382812
8,3.0679615757712826,-0.018407769454627694,-6.189797626001438,0.9523353224182278,0.02960801124572754
9,3.0618256526197394,-0.021475731030398976,-5.2586342583782795,0.6084701791460181,0.033606529235839844
10,3.055689729468197,-0.02454369260617026,-4.513703564279751,0.33337806452825025,0.03762531280517578
11,3.0495538063166547,-0.02761165418194154,-3.917759009000929,0.11330437283403638,0.04157066345214844
12,3.040349921589341,-0.02761165418194154,-3.5944014435664364,0.09064349826722906,0.045568227767944336
13,3.0342139984377985,-0.030679615757712823,-3.1823173124302766,-0.08088328017478053,0.049567222595214844
14,3.0250101137104846,-0.0337475773334841,-3.0060480863099137,-0.21810470292838846,0.053566694259643555
15,3.0158062289831706,-0.03681553890925539,-2.8650327054136233,-0.32788184113127516,0.0576021671295166
16,3.0066023442558567,-0.039883500485026674,-2.7522204006965905,-0.4157035516935843,0.061568498611450195
17,2.997398459528543,-0.04295146206079795,-2.6619705569229666,-0.4859609201434312,0.06562280654907227
18,2.988194574801229,-0.04908738521234052,-2.5897706819040653,-0.6955648936918735,0.0695796012878418
19,2.975922728498144,-0.0521553467881118,-2.685408860677507,-0.7098499937420633,0.07361268997192383
20,2.9667188437708303,-0.05522330836388308,-2.6085213249076986,-0.7212780737822144,0.07756686210632324
21,2.9544469974677448,-0.06135923151542565,-2.700409375080416,-0.8838186166028996,0.08156609535217285
22,2.94217515116466,-0.06442719309119693,-2.773919815218588,-0.8604529720708842,0.08556914329528809
23,2.926835343285803,-0.07056311624273949,-2.986126246117691,-0.995158535233835,0.08958697319030762
24,2.9145634969827183,-0.07363107781851078,-3.0024933120484096,-0.9495249069756322,0.0935666561126709
25,2.899223689103862,-0.07976700097005335,-3.1689850435815483,-1.0664160831576344,0.09756922721862793
26,2.883883881225005,-0.0859029241215959,-3.3021784288080607,-1.159929024103235,0.10156846046447754
27,2.865476111770378,-0.09203884727313846,-3.562131215777832,-1.2347393768597166,0.1056215763092041
28,2.84706834231575,-0.09817477042468103,-3.7700934453536483,-1.2945876590649017,0.10956907272338867
29,2.831728534436894,-0.1043106935762236,-3.7830651502257417,-1.3424662848290496,0.11357665061950684
30,2.8102528034064944,-0.11044661672776616,-4.10023867170054,-1.3807691854403679,0.11762475967407227
31,2.7918450339518666,-0.11658253987930872,-4.200579410091818,-1.411411505929422,0.12158679962158203
32,2.770369302921468,-0.1227184630308513,-4.434250079593406,-1.435925362320666,0.1255662441253662
33,2.7488935718910685,-0.13192234775816514,-4.621186615194672,-1.6089345262222254,0.12956547737121582
34,2.7243498792848984,-0.1380582709097077,-4.924133922464252,-1.5939437785549098,0.13362526893615723
35,2.699806186678728,-0.14726215563702155,-5.166491768279911,-1.7353492592096194,0.1376206874847412
36,2.675262494072558,-0.15339807878856412,-5.3603780449324425,-1.6950755649448244,0.1415703296661377
37,2.6476508398906162,-0.16260196351587797,-5.668885145043031,-1.8162546883215525,0.14557147026062012
38,2.6200391857086753,-0.1718058482431918,-5.915690825131502,-1.913197987022932,0.14955830574035645
39,2.5924275315267336,-0.17794177139473438,-6.113135369202279,-1.837354547195475,0.15360164642333984
40,2.561747915769021,-0.18714565612204823,-6.424489083247465,-1.9300778741220732,0.15761590003967285
41,2.5310683000113077,-0.19634954084936207,-6.673572054483614,-2.004256535663351,0.1615617275238037
42,2.500388684253595,-0.20248546400090464,-6.872838431472534,-1.9102013861078095,0.16556334495544434
43,2.466641106920111,-0.21168934872821848,-7.185649611852234,-1.9883553452519394,0.16957736015319824
44,2.432893529586627,-0.22089323345553233,-7.4358985561559905,-2.0508785125672446,0.17361855506896973
45,2.3960779906773713,-0.2270291566070749,-7.789495790387562,-1.9474989676309242,0.17756319046020508
46,2.3592624517681164,-0.23623304133438874,-8.072373577772822,-2.018193410470431,0.1815650463104248
47,2.3224469128588607,-0.24236896448593132,-8.298675807681022,-1.9213508859534745,0.18556642532348633
48,2.2825634123738343,-0.25157284921324513,-8.633115670396151,-1.9972749451284706,0.189619779586792
49,2.242679911888807,-0.25770877236478773,-8.900667560568252,-1.9046161136799071,0.19356894493103027
50,2.19972844982801,-0.2638446955163303,-9.268107151494505,-1.830489048521052,0.197615385055542
51,2.156776987767212,-0.2699806186678728,-9.5620588242355,-1.7711873963939677,0.20159220695495605
52,2.110757564130642,-0.2761165418194154,-9.950618241216873,-1.7237460746923041,0.20564532279968262
53,2.0647381404940734,-0.28225246497095796,-10.261465774801955,-1.6857930173309708,0.20959067344665527
54,2.018718716857504,-0.28532042654672923,-10.510143801670019,-1.5020324926533402,0.21359562873840332
55,1.9665633700693919,-0.28838838812250056,-11.015882380741601,-1.3550240729112382,0.21764278411865234
56,1.9174759848570515,-0.29145634969827183,-11.267075165210315,-1.237417337117554,0.22158193588256836
57,1.8653206380689396,-0.2945243112740431,-11.621427471573853,-1.1433319484826043,0.22559595108032227
58,1.8100973297050569,-0.2975922728498144,-12.058307395453241,-1.0680636375746477,0.22959256172180176
59,1.7548740213411733,-0.2975922728498144,-12.407811334556747,-0.8544509100597182,0.2335977554321289
60,1.696582751401519,-0.2975922728498144,-12.840812564628123,-0.6835607280477749,0.2375926971435547
61,1.6382914814618648,-0.2975922728498144,-13.187213548685207,-0.546848582438221,0.24159502983093262
62,1.5769322499464389,-0.2945243112740431,-13.617732414719455,-0.28408078716201324,0.24559259414672852
63,1.515573018431013,-0.28838838812250056,-13.962147507546845,0.07953152784751616,0.24955439567565918
64,1.4480778637640448,-0.28532042654672923,-14.544475739385874,0.21702330106657897,0.2536449432373047
65,1.3805827090970766,-0.2791845033951867,-15.010338324857116,0.4804147984303917,0.25763678550720215
66,1.3130875544301084,-0.2699806186678728,-15.383028393234099,0.8445260751100072,0.26159167289733887
67,1.2394564766115979,-0.25770877236478773,-15.987976605512813,1.28921317524226,0.26562047004699707
68,1.1627574372173157,-0.2454369260617026,-16.625333254124357,1.6449628553480675,0.26959896087646484
69,1.0860583978230345,-0.23009711818284617,-17.13521857301359,2.0829606782212746,0.27364659309387207
70,1.0062913968529807,-0.21168934872821848,-17.696524906913524,2.586757015308404,0.27759385108947754
71,0.9203884727313847,-0.1902136176978195,-18.452366131610617,3.143192163766672,0.2816309928894043
72,0.8344855486097886,-0.16566992509164924,-19.05703911136831,3.7417383613218522,0.2856485843658447
73,0.7424467013366502,-0.1380582709097077,-19.847573652751564,4.373973398154557,0.28964662551879883
74,0.6473398924877407,-0.1043106935762236,-20.633399364646735,5.186557585197851,0.2935936450958252
75,0.5460971604872884,-0.0674951546669682,-21.568856091740003,5.99002301362105,0.2975935935974121
76,0.4417864669110645,-0.02454369260617026,-22.470619552203203,6.939591513936738,0.3016054630279541
77,0.3313398501832987,0.02454369260617026,-23.49882647815086,8.006042471766415,0.3055894374847412
78,0.21782527187976086,0.07976700097005335,-24.474790097697593,9.165999395607287,0.30959129333496094
79,0.09817477042468115,0.1349903093339364,-25.562357150912064,10.093964934679983,0.313601016998291
80,-0.021475731030399015,0.1932815792735908,-26.432410793483655,10.989735444726705,0.31758904457092285
81,-0.13805827090970757,0.24850488763747386,-26.975055628752358,11.552953773975517,0.32160234451293945
82,-0.2485048876374738,0.30066023442558565,-27.102375339390193,11.850130358586004,0.3255903720855713
83,-0.35895150436524004,0.3466796580621549,-27.204231107900483,11.781075468697265,0.3295881748199463
84,-0.46019423636569234,0.38963112012295287,-26.825521486343007,11.57243347799771,0.3335912227630615
85,-0.5583690067903735,0.42337869745643697,-26.369155710308462,10.945325649072371,0.3375997543334961
86,-0.6504078540635119,0.4540583132141498,-25.697266931903698,10.290241307143539,0.34158873558044434
87,-0.7393787397608791,0.4816699673960913,-25.006357830391323,9.612775754811906,0.34558701515197754
88,-0.8222137023067035,0.5031456984264903,-24.146834391604273,8.764007155369473,0.3496360778808594
89,-0.9050486648525284,0.521553467881118,-23.459215640574655,7.931594197026964,0.35359668731689453
90,-0.978679742671039,0.5368932757599744,-22.448926403385258,7.11226575156439,0.357590913772583
91,-1.0523108204895495,0.5491651220630596,-21.640695013633746,6.303404916405771,0.36159634590148926
92,-1.125941898308061,0.5614369683661447,-20.99410990183256,5.656316248278873,0.365617036819458
93,-1.1934370529750291,0.5675728915176872,-20.17004565481443,4.831849156200224,0.36959362030029297
94,-1.2578642460662257,0.5737088146692298,-19.357396178411392,4.172275482537316,0.3735947608947754
95,-1.3222914391574223,0.5798447378207724,-18.707276597288967,3.644616543606979,0.3775906562805176
96,-1.3836506706728482,0.5829126993965437,-18.033782853602474,3.0690913136741464,0.3815891742706299
97,-1.4419419406125025,0.5859806609723149,-17.341589779864677,2.608671129727881,0.38562440872192383
98,-1.5002332105521567,0.5859806609723149,-16.78783532087445,2.0869369037823056,0.38960933685302734
99,-1.5554565189160403,0.5859806609723149,-16.191433674893716,1.6695495230258466,0.39362215995788574
100,-1.6076118657041523,0.5829126993965437,-15.56091427932057,1.1822415396321162,0.39760851860046387
101,-1.6597672124922633,0.5829126993965437,-15.05649876286202,0.945793231705693,0.40159177780151367
102,-1.7088545977046046,0.5767767762450011,-14.499568270906678,0.449838427787423,0.4056429862976074
103,-1.757941982916945,0.5737088146692298,-14.054023877342388,0.20647266344137805,0.409590482711792
104,-1.8039614065535137,0.5706408530934585,-13.544190283702306,0.011780051964532134,0.4136524200439453
105,-1.8469128686143117,0.5645049299419159,-12.982925330001763,-0.29737211600550495,0.4175901412963867
106,-1.8898643306751097,0.5583690067903734,-12.533913367041322,-0.5446938503815311,0.4215972423553467
107,-1.9297478311601362,0.5522330836388308,-12.02130571788436,-0.7425512378823491,0.42559003829956055
108,-1.9696313316451635,0.5460971604872883,-11.611219598558847,-0.9008371478830064,0.42958784103393555
109,-2.0064468705544183,0.5399612373357456,-11.129752624309816,-1.0274658758835358,0.4336202144622803
110,-2.043262409463674,0.5338253141842031,-10.744579044910637,-1.128768858283955,0.4375882148742676
111,-2.077009986797158,0.5246214294568893,-10.283042102602735,-1.3632093229928586,0.4415888786315918
112,-2.110757564130642,0.5184855063053467,-9.913812548756368,-1.3973636159714111,0.445587158203125
113,-2.1414371798883547,0.5092816215780329,-9.46503082689074,-1.5780851291428206,0.4496188163757324
114,-2.1690488340702965,0.5031456984264903,-8.952607370609712,-1.5692642608913907,0.4536573886871338
115,-2.1966604882522383,0.4970097752749477,-8.542668605584822,-1.5622075662902404,0.4575953483581543
116,-2.22427214243418,0.4878058905476339,-8.214717593564956,-1.709960289397884,0.4615902900695801
117,-2.24881583504035,0.4816699673960913,-7.798958705160487,-1.674764389095433,0.46561694145202637
118,-2.270291566070749,0.47553404424454876,-7.312953515648303,-1.6466076688534734,0.46959352493286133
119,-2.2917672971011482,0.4663301595172349,-6.9241493640386125,-1.7774803714484726,0.47359156608581543
120,-2.313243028131547,0.46019423636569234,-6.613106042750871,-1.7287804547359045,0.47759294509887695
121,-2.328582836010403,0.4540583132141498,-6.05747522814346,-1.6898205213658528,0.48158931732177734
122,-2.346990605465031,0.4479223900626072,-5.76636865524614,-1.6586525746698122,0.4856264591217041
123,-2.362330413343887,0.44178646691106466,-5.38008531813972,-1.6337182173129747,0.48964405059814453
124,-2.3746022596469727,0.4387185053352934,-4.917660569666111,-1.4603726526389416,0.4935891628265381
125,-2.3838061443742866,0.4325825821837508,-4.394322692098569,-1.4750942796882853,0.49764180183410645
126,-2.3960779906773713,0.4295146206079795,-4.1290504688331,-1.3334735025391922,0.5016286373138428
127,-2.4022139138289145,0.42337869745643697,-3.610036532643676,-1.3735749596084794,0.5056226253509521
128,-2.408349836980457,0.4203107358806657,-3.1948253836920344,-1.2522580464753474,0.5095882415771484
129,-2.414485760131999,0.4172427743048944,-2.862656464530744,-1.1552045159688404,0.5136520862579346
130,-2.4175537217077707,0.4141748127291231,-2.443523250413193,-1.0775616915636377,0.5175881385803223
131,-2.4206216832835414,0.4141748127291231,-2.1082166791190957,-0.8620493532509101,0.5216124057769775
132,-2.4206216832835414,0.4111068511533518,-1.6865733432952652,-0.8430375613892949,0.5255887508392334
133,-2.4175537217077707,0.4111068511533518,-1.1958605958476483,-0.6744300491114359,0.5295891761779785
134,-2.414485760131999,0.4111068511533518,-0.8032903978894979,-0.5395440392891508,0.53365159034729
135,-2.4114177985562275,0.4111068511533518,-0.48923423952300027,-0.4316352314313221,0.5376567840576172
136,-2.405281875404685,0.4111068511533518,-0.08459123404134061,-0.3453081851450577,0.5415892601013184
137,-2.3960779906773713,0.4111068511533518,0.39252124913264197,-0.27624654811604543,0.5455882549285889
138,-2.3868741059500573,0.4111068511533518,0.7742112356717712,-0.22099723849283492,0.5496029853820801
139,-2.3746022596469727,0.4141748127291231,1.2329613036916385,-0.0233997120057019,0.5536401271820068
140,-2.362330413343887,0.4172427743048944,1.5999613581076346,0.1346783091840038,0.5576179027557373
141,-2.346990605465031,0.4172427743048944,2.0469594804289386,0.10774264734720518,0.5616011619567871
142,-2.3316507975861747,0.4203107358806657,2.4045579782859363,0.23959219666632947,0.565598726272583
143,-2.313243028131547,0.42337869745643697,2.844034855360121,0.34507183612162606,0.5695831775665283
144,-2.294835258676919,0.42644665903220824,3.195616357019503,0.42945554768586547,0.5735757350921631
145,-2.2733595276465204,0.4295146206079795,3.6302796371355157,0.496962516937252,0.5775682926177979
146,-2.251883796616121,0.4356505437595221,3.9780102612284054,0.7043661711269316,0.5815858840942383
147,-2.2273401040099507,0.4387185053352934,4.409592839291236,0.7168910156901127,0.5855841636657715
148,-2.2027964114037806,0.44178646691106466,4.7548589017415,0.7269108913406512,0.5895755290985107
149,-2.175184757221839,0.4479223900626072,5.184469830490286,0.8883248706496474,0.593571662902832
150,-2.147573103039898,0.45099035163837853,5.528158573489293,0.8640579753082847,0.5976073741912842
151,-2.1168934872821845,0.4540583132141498,5.956507646677039,0.8446444590351909,0.601581335067749
152,-2.0831459099487004,0.45712627478992107,6.452584984015857,0.8291136460167117,0.6055777072906494
153,-2.052466294190988,0.4632621979414636,6.6960487750983475,0.9700870743904986,0.6095712184906006
154,-2.015650755281732,0.4663301595172349,7.197615965541445,0.9294677383009642,0.6136693954467773
155,-1.9788352163724774,0.4693981210930062,7.598869717895866,0.8969722694293338,0.6175849437713623
156,-1.9420196774632217,0.4724660826687775,7.919872719779448,0.8709758943320303,0.6216542720794678
157,-1.9021361769781953,0.47553404424454876,8.330073200074878,0.8501787942541874,0.6255722045898438
158,-1.8591847149173972,0.47860200582032003,8.811631663099831,0.8335411141919131,0.6295747756958008
159,-1.8162332528565992,0.47860200582032003,9.196878433519743,0.6668328913535326,0.6336321830749512
160,-1.7702138292200296,0.4816699673960913,9.658473928644298,0.6868643918713921,0.6375775337219238
161,-1.7241944055834608,0.4816699673960913,10.027750324743863,0.549491513497113,0.6415739059448242
162,-1.6751070203711205,0.4816699673960913,10.476569520412141,0.43959321079769254,0.6455719470977783
163,-1.6260196351587792,0.4816699673960913,10.835624876946753,0.35167456863815616,0.6495881080627441
164,-1.5738642883706682,0.4816699673960913,11.276267240962966,0.28133965491052493,0.6535694599151611
165,-1.5217089415825562,0.47860200582032003,11.628781132175959,0.07167364513985319,0.6575741767883301
166,-1.463417671642902,0.47553404424454876,12.217588402723493,-0.0960591626766778,0.6616132259368896
167,-1.4051264017032477,0.4693981210930062,12.688634219161514,-0.38364348771846934,0.6656374931335449
168,-1.3468351317635934,0.4663301595172349,13.06547087231192,-0.4603128689633422,0.6695785522460938
169,-1.2854759002481675,0.45712627478992107,13.520338273620837,-0.8284445315363662,0.6736009120941162
170,-1.22104870715697,0.45099035163837853,14.037630273456557,-0.9695517828062172,0.6775767803192139
171,-1.1535535524900018,0.4387185053352934,14.604861952113623,-1.3892337413992308,0.6815917491912842
172,-1.0829904362472629,0.42644665903220824,15.212045373827834,-1.7249793082736424,0.6855823993682861
173,-1.012427320004523,0.4141748127291231,15.697792111199277,-1.9935757617731689,0.6895718574523926
174,-0.9387962421860125,0.3957670432744954,16.239787579884933,-2.5152490821499214,0.6935698986053467
175,-0.8590292412159588,0.3773592738198677,16.980180112410636,-2.9325877384513213,0.6976304054260254
176,-0.7792622402459055,0.35588354278946877,17.572494138431153,-3.4198567422810093,0.7015831470489502
177,-0.6933593161243099,0.3282718886075272,18.353141516824707,-4.116468102921882,0.7055745124816895
178,-0.6074563920027138,0.2975922728498144,18.977659419539577,-4.82715527022315,0.7095773220062256
179,-0.5154175447295755,0.2638446955163303,19.784069899288568,-5.549103082852723,0.7136011123657227
180,-0.4172427743048943,0.2270291566070749,20.73599444066491,-6.280059411744947,0.7175817489624023
181,-0.316000042304442,0.18100973297050565,21.65093215255453,-7.32501871122442,0.7216062545776367
182,-0.20862138715244738,0.1349903093339364,22.689678479643362,-8.160986150808,0.7255716323852539
183,-0.09817477042468115,0.08283496254582462,23.674073620103,-9.13655626005199,0.7295753955841064
184,0.012271846303085088,0.02761165418194154,24.461589732470713,-10.070410426235744,0.7335898876190186
185,0.12578642460662248,-0.02761165418194154,25.24500070115343,-10.81749375918275,0.7375714778900146
186,0.23623304133438872,-0.07976700097005335,25.718331397311033,-11.26176234675179,0.7415704727172852
187,0.3405437349106122,-0.12885438618239387,25.790199796660005,-11.46377913801846,0.7455730438232422
188,0.4417864669110645,-0.1718058482431918,25.69429643735063,-11.318596413454664,0.7495884895324707
189,0.5399612373357456,-0.21168934872821848,25.46417567111456,-11.049052155015064,0.7535886764526367
190,0.632000084608884,-0.2454369260617026,24.97328290054857,-10.526620590686257,0.7575805187225342
191,0.7209709703062512,-0.2761165418194154,24.427170605307225,-9.955277260434647,0.7615740299224854
192,0.8038059328520761,-0.30066023442558565,23.68348461153701,-9.191406438656228,0.7656080722808838
193,0.8805049722463583,-0.32213596545598466,22.781739658943692,-8.426911702444933,0.769585132598877
194,0.9572040116406395,-0.34054373491061235,22.06034369686907,-7.661917834687332,0.7736141681671143
195,1.030835089459151,-0.35895150436524004,21.32982884842079,-7.049922740481252,0.7775692939758301
196,1.0983302441261191,-0.3712233506683252,20.438620812085063,-6.253530507539258,0.7815835475921631
197,1.1658253987930873,-0.38349519697141027,19.725654383016447,-5.61641672118566,0.7855777740478516
